lag_frame[sec],MSD_[px^2]
0.008333333333333333,1.4877352096442213
0.016666666666666666,2.8253502766299796
0.025,4.186775770015209
0.03333333333333333,5.561372259054966
0.041666666666666664,6.942494217333995
0.05,8.31089436527224
0.058333333333333334,9.634049088312779
0.06666666666666667,10.931915545149993
0.075,12.197711922429917
0.08333333333333333,13.394698740211927
0.09166666666666666,14.545140733191525
0.1,15.644134568074284
0.10833333333333334,16.689963028890844
0.11666666666666667,17.708764100405375
0.125,18.678302116764797
0.13333333333333333,19.629274400475104
0.14166666666666666,20.586928041812918
0.15,21.538711473735898
0.15833333333333333,22.51099162261087
0.16666666666666666,23.522077948644224
0.175,24.58458884094803
0.18333333333333332,25.68528613130056
0.19166666666666665,26.83782978521058
0.2,28.00086175634229
0.20833333333333334,29.194364968584974
0.21666666666666667,30.387649777242917
0.225,31.56869355858711
0.23333333333333334,32.73199224609289
0.24166666666666667,33.86876470273144
0.25,34.93506276965644
0.2583333333333333,35.99833711333757
0.26666666666666666,36.99413632655999
0.275,37.929169541016655
0.2833333333333333,38.83530224259246
0.2916666666666667,39.69337987818689
0.3,40.51919727560313
0.30833333333333335,41.34566253463186
0.31666666666666665,42.18120322749058
0.325,43.012509540117115
0.3333333333333333,43.869001306088585
0.3416666666666667,44.74459331048385
0.35,45.66572684144797
0.35833333333333334,46.63806742600291
0.36666666666666664,47.657895316934265
0.375,48.71429924908412
0.3833333333333333,49.762037514250174
0.39166666666666666,50.842289765801056
0.4,51.8882289278554
0.4083333333333333,52.92213422721055
0.4166666666666667,53.932863593318345
0.425,54.87458764088238
0.43333333333333335,55.74862079752198
0.44166666666666665,56.56641318724646
0.45,57.34691527693758
0.4583333333333333,58.11355413756062
0.4666666666666667,58.84071147708048
0.475,59.552545616476785
0.48333333333333334,60.25050577053022
0.49166666666666664,60.92833661706155
0.5,61.6738826764261
0.5083333333333333,62.43726758767186
0.5166666666666666,63.23482158714115
0.525,64.08212115638075
0.5333333333333333,64.91542201045306
0.5416666666666666,65.78920013209627
0.55,66.73711661613991
0.5583333333333333,67.6794300381612
0.5666666666666667,68.63117450621024
0.575,69.58644521934666
0.5833333333333334,70.52565200665612
0.5916666666666667,71.41640745997726
0.6,72.2840213392163
0.6083333333333333,73.13176026266835
0.6166666666666667,73.91965245995023
0.625,74.63866278824426
0.6333333333333333,75.33956892258053
0.6416666666666666,76.0163989883405
0.65,76.65234204031975
0.6583333333333333,77.32627829752617
0.6666666666666666,77.99209745578317
0.675,78.67670483588327
0.6833333333333333,79.37319441227498
0.6916666666666667,80.17331586883984
0.7,81.01550363280988
0.7083333333333334,81.87379036829238
0.7166666666666667,82.7736387360096
0.725,83.74244727825167
0.7333333333333333,84.70216660117912
0.7416666666666667,85.64737900073372
0.75,86.60101072735569
0.7583333333333333,87.54655660891359
0.7666666666666666,88.42582751708672
0.775,89.31720918283159
0.7833333333333333,90.10921756696827
0.7916666666666666,90.87546759369171
0.8,91.59866493224003
0.8083333333333333,92.30464518287951
0.8166666666666667,92.96814652003148
0.825,93.58589766814922
0.8333333333333334,94.25776033390711
0.8416666666666667,94.87115228963319
0.85,95.59438194135026
0.8583333333333333,96.313688536672
0.8666666666666667,97.05417602124044
0.875,97.88907782224086
0.8833333333333333,98.75238984042898
0.8916666666666666,99.68393619879272
0.9,100.58268674023525
0.9083333333333333,101.54930282122845
0.9166666666666666,102.54987558714865
0.9249999999999999,103.48165982217809
0.9333333333333333,104.38863997051105
0.9416666666666667,105.30097831720556
0.95,106.13235509587636
0.9583333333333334,106.92268099579907
0.9666666666666667,107.68001325800493
0.975,108.3268792224045
0.9833333333333333,108.96158127795596
0.9916666666666667,109.56677308828436
1.0,110.18012703069944
1.0083333333333333,110.79845665445872
1.0166666666666666,111.4442922139155
1.025,112.09771717512207
1.0333333333333332,112.77329319936632
1.0416666666666667,113.47476435368606
1.05,114.20510112024382
1.0583333333333333,114.96058709551018
1.0666666666666667,115.83223591668617
1.075,116.69129073110318
1.0833333333333333,117.57022628176537
1.0916666666666666,118.49487220030021
1.1,119.42028331337626
1.1083333333333334,120.23775937530982
1.1166666666666667,121.05022682158948
1.125,121.78605537040471
1.1333333333333333,122.53336453083566
1.1416666666666666,123.19564038314552
1.15,123.81640722232522
1.1583333333333332,124.46912918887256
1.1666666666666667,125.02898815788912
1.175,125.51893126577998
1.1833333333333333,126.10501458000054
1.1916666666666667,126.63610556904192
1.2,127.23126636458852
1.2083333333333333,127.82890136308687
1.2166666666666666,128.4641881462563
1.225,129.14694502171739
1.2333333333333334,129.90600852622487
1.2416666666666667,130.64209101214806
1.25,131.48615991833594
1.2583333333333333,132.3381383219449
1.2666666666666666,133.15382895203967
1.275,133.89764168106845
1.2833333333333332,134.62512803753702
1.2916666666666667,135.3631267721778
1.3,136.11352320840422
1.3083333333333333,136.75682669263463
1.3166666666666667,137.3855026833706
1.325,137.96169225826705
1.3333333333333333,138.50688833679038
1.3416666666666666,138.9629780979312
1.35,139.53152316302334
1.3583333333333334,140.0865035138826
1.3666666666666667,140.72840652604492
1.375,141.40979879840768
1.3833333333333333,142.05744241544025
1.3916666666666666,142.77503319466913
1.4,143.5598795268683
1.4083333333333332,144.37053719115877
1.4166666666666667,145.21044392201026
1.425,146.0436965044253
1.4333333333333333,146.91819731530944
1.4416666666666667,147.7528649243426
1.45,148.60521008026961
1.4583333333333333,149.42816376024774
1.4666666666666666,150.2610870941813
1.475,151.01116491913055
1.4833333333333334,151.8198449425234
1.4916666666666667,152.48303629016127
1.5,153.2032655155113
1.5083333333333333,153.79505093919624
1.5166666666666666,154.4087311527618
1.525,154.9894733613663
1.5333333333333332,155.62391983633088
1.5416666666666667,156.234967652415
1.55,156.89512435857637
1.5583333333333333,157.59187326420502
1.5666666666666667,158.31918727504006
1.575,159.0684190720527
1.5833333333333333,159.9075968857913
1.5916666666666666,160.77371287423395
1.6,161.7062515651541
1.6083333333333334,162.6261384590115
1.6166666666666667,163.5661480846916
1.625,164.47739898211293
1.6333333333333333,165.38656907040328
1.6416666666666666,166.30266665532227
1.65,167.0863027159696
1.6583333333333332,167.81736319609567
1.6666666666666667,168.52137819801277
1.675,169.1829220048933
1.6833333333333333,169.85494896537656
1.6916666666666667,170.48865903579545
1.7,171.1475605051007
1.7083333333333333,171.77550436892685
1.7166666666666666,172.37178891328446
1.7249999999999999,173.07604954295758
1.7333333333333334,173.82694171650806
1.7416666666666667,174.5911965246142
1.75,175.40129223012048
1.7583333333333333,176.30555651887846
1.7666666666666666,177.17499650332337
1.775,178.06077667411932
1.7833333333333332,178.99303521480275
1.7916666666666667,179.80647988659925
1.8,180.6642451842562
1.8083333333333333,181.50998121552294
1.8166666666666667,182.3410951051414
1.825,183.1264933101538
1.8333333333333333,183.8689935412298
1.8416666666666666,184.58092565126606
1.8499999999999999,185.26973561389545
1.8583333333333334,185.96211644776847
1.8666666666666667,186.5156626835403
1.875,187.07415474726486
1.8833333333333333,187.643149473659
1.8916666666666666,188.24435049635713
1.9,188.90782396784553
1.9083333333333332,189.63895955939077
1.9166666666666667,190.45200814454512
1.925,191.29861256469704
1.9333333333333333,192.16853077719207
1.9416666666666667,193.04063446852064
1.95,193.95583969260926
1.9583333333333333,194.8622745600759
1.9666666666666666,195.90196482128988
1.9749999999999999,196.84400858463235
1.9833333333333334,197.7299910963176
1.9916666666666667,198.596819237272
2.0,199.4677120709545
2.0083333333333333,200.1869910262347
2.0166666666666666,200.8551549037675
2.025,201.50692102273942
2.033333333333333,202.13625312293934
2.0416666666666665,202.81029003505856
2.05,203.4371658462411
2.058333333333333,204.08240133526206
2.0666666666666664,204.77284792694522
2.075,205.5697600094272
2.0833333333333335,206.349096478017
2.091666666666667,207.1433620735445
2.1,208.0182428634177
2.1083333333333334,208.8705329145958
2.1166666666666667,209.87919373456108
2.125,210.86533362720087
2.1333333333333333,211.85932140685136
2.1416666666666666,212.7439822610788
2.15,213.65651860331312
2.158333333333333,214.49627449224687
2.1666666666666665,215.36592964664084
2.175,216.19484027875424
2.183333333333333,217.0455448654991
2.1916666666666664,217.79573036706964
2.2,218.60610318279132
2.2083333333333335,219.34558313599186
2.216666666666667,220.14325152950644
2.225,220.88187685437327
2.2333333333333334,221.6370473946454
2.2416666666666667,222.49857705427178
2.25,223.46968404359674
2.2583333333333333,224.56744844986235
2.2666666666666666,225.53229709802113
2.275,226.52467292980694
2.283333333333333,227.66534764531443
2.2916666666666665,228.72184763942911
2.3,229.87356810701147
2.308333333333333,231.10400715538583
2.3166666666666664,232.2780752029753
2.325,233.38817497001554
2.3333333333333335,234.5093156744924
2.341666666666667,235.60736654192874
2.35,236.6569807437112
2.3583333333333334,237.65853860005498
2.3666666666666667,238.6172073915728
2.375,239.62413654005783
2.3833333333333333,240.55499365378842
2.3916666666666666,241.51313928760584
2.4,242.2648783811068
2.408333333333333,243.05050328738375
2.4166666666666665,244.00803861562255
2.425,244.87752567944324
2.433333333333333,245.9442913868065
2.4416666666666664,247.17166042522786
2.45,248.31743070764617
2.4583333333333335,249.43756361873872
2.466666666666667,250.74271068330137
2.475,251.8687917525234
2.4833333333333334,253.1223238990952
2.4916666666666667,254.29168341894479
2.5,255.44057791039285
2.5083333333333333,256.57745125435923
2.5166666666666666,257.7004205613478
2.525,258.7625273477874
2.533333333333333,259.7911661900894
2.5416666666666665,260.76591097784933
2.55,261.8369166291154
2.558333333333333,262.87907723395926
2.5666666666666664,263.91191495751025
2.575,264.9199497398438
2.5833333333333335,265.9757000115703
2.591666666666667,266.9981062804806
2.6,268.09055647185977
2.6083333333333334,269.2316274306415
2.6166666666666667,270.33463764685126
2.625,271.48502091735634
2.6333333333333333,272.61534897164563
2.6416666666666666,273.85026097040134
2.65,275.03047085252365
2.658333333333333,276.2674707133911
2.6666666666666665,277.4257904618327
2.675,278.54349041418226
2.683333333333333,279.6267204939564
2.6916666666666664,280.71787816474585
2.7,281.6885115073668
2.7083333333333335,282.57669670907796
2.716666666666667,283.5651692868667
2.725,284.4918869548028
2.7333333333333334,285.4133192894127
2.7416666666666667,286.31091970328
2.75,287.20305717907183
2.7583333333333333,288.0970926006827
2.7666666666666666,289.0479806116715
2.775,290.00948673895005
2.783333333333333,290.942042668296
2.7916666666666665,292.0236139234134
2.8,293.1130354943831
2.808333333333333,294.2672780206841
2.8166666666666664,295.42842154672695
2.825,296.55833927664736
2.8333333333333335,297.67697988894037
2.841666666666667,298.8567923303681
2.85,300.0434158626157
2.8583333333333334,301.157874293877
2.8666666666666667,302.23172389316363
2.875,303.2986279787098
2.8833333333333333,304.25570423597844
2.8916666666666666,305.1871336708594
2.9,306.1097890174253
2.908333333333333,306.9986003598095
2.9166666666666665,307.96782728755045
2.925,308.949191606476
2.933333333333333,309.9441479162109
2.9416666666666664,310.8644154188885
2.95,311.862252625558
2.9583333333333335,312.87535424714116
2.966666666666667,313.88508906188184
2.975,314.8982787472256
2.9833333333333334,315.95765594105336
2.9916666666666667,317.16342883464785
3.0,318.3372895529307
3.0083333333333333,319.53649640032546
3.0166666666666666,320.62362610020097
3.025,321.7016260648285
3.033333333333333,322.82623762500674
3.0416666666666665,323.9304430267968
3.05,324.9749504926924
3.058333333333333,326.0033010699176
3.0666666666666664,327.0362468574521
3.075,328.0357264247388
3.0833333333333335,328.993246260566
3.091666666666667,329.97245168134697
3.1,330.97626168128613
3.1083333333333334,331.89125279054826
3.1166666666666667,332.8629072108654
3.125,333.9488508083631
3.1333333333333333,334.9680304243525
3.1416666666666666,335.9932959543165
3.15,337.1470910089058
3.158333333333333,338.24473631077547
3.1666666666666665,339.3759830260799
3.175,340.6515489299361
3.183333333333333,341.7925061777762
3.1916666666666664,342.8873530806286
3.2,343.914855689935
3.2083333333333335,344.90042150037505
3.216666666666667,345.88784597408596
3.225,346.76776971077317
3.2333333333333334,347.7882918168046
3.2416666666666667,348.68846070309337
3.25,349.57857375992916
3.2583333333333333,350.40190099077523
3.2666666666666666,351.1985996593154
3.275,351.9757560370585
3.283333333333333,352.8605332359691
3.2916666666666665,353.77029639514546
3.3,354.6632329748017
3.308333333333333,355.61490633724884
3.3166666666666664,356.64650500013516
3.3249999999999997,357.55788261948845
3.3333333333333335,358.511795752981
3.341666666666667,359.61331143474484
3.35,360.61727958140244
3.3583333333333334,361.68779299588954
3.3666666666666667,362.5757048853992
3.375,363.53984195084814
3.3833333333333333,364.3855623985862
3.3916666666666666,365.2057162096148
3.4,366.06230540470943
3.408333333333333,366.9382009203735
3.4166666666666665,367.8384379318242
3.425,368.58058266734315
3.433333333333333,369.3832007960928
3.4416666666666664,370.1744332983844
3.4499999999999997,371.02561743029554
3.4583333333333335,371.81739545821324
3.466666666666667,372.695626761629
3.475,373.57023243628606
3.4833333333333334,374.2470095845061
3.4916666666666667,375.14125887276265
3.5,375.9680395295238
3.5083333333333333,377.02560149793777
3.5166666666666666,378.089219727389
3.525,379.0184131360916
3.533333333333333,379.92648997268196
3.5416666666666665,380.8987701554778
3.55,381.75102159736394
3.558333333333333,382.6070356554073
3.5666666666666664,383.5902412470155
3.5749999999999997,384.38121619173415
3.5833333333333335,385.0952311963974
3.591666666666667,386.0351931892045
3.6,386.82257034860896
3.6083333333333334,387.82091685528064
3.6166666666666667,388.6579678118362
3.625,389.5381405103232
3.6333333333333333,390.4360267131228
3.6416666666666666,391.38791435874066
3.65,392.43649242802223
3.658333333333333,393.5034157319147
3.6666666666666665,394.43086142936164
3.675,395.42123494335686
3.683333333333333,396.3826423523219
3.6916666666666664,397.55403978307805
3.6999999999999997,398.5531373766236
3.7083333333333335,399.68358357942634
3.716666666666667,400.76684699782913
3.725,401.6805718510553
3.7333333333333334,402.566730444786
3.7416666666666667,403.439911453833
3.75,404.18977043594464
3.7583333333333333,404.9476788579604
3.7666666666666666,405.81075317461523
3.775,406.5066317380243
3.783333333333333,407.19908778035153
3.7916666666666665,407.9146210700095
3.8,408.6131386298476
3.808333333333333,409.2722421770993
3.8166666666666664,410.054771843518
3.8249999999999997,410.85915278214435
3.8333333333333335,411.6360906758461
3.841666666666667,412.5315675337147
3.85,413.43455888517724
3.8583333333333334,414.4082601070111
3.8666666666666667,415.42459808693246
3.875,416.4576740775669
3.8833333333333333,417.49578555333596
3.8916666666666666,418.5326130452545
3.9,419.3515129152026
3.908333333333333,420.296407858161
3.9166666666666665,421.2928595560296
3.925,422.2275976091768
3.933333333333333,422.9744830594423
3.9416666666666664,423.7064373777142
3.9499999999999997,424.29937504675576
3.9583333333333335,425.22223755242794
3.966666666666667,425.9212285815972
3.975,426.6852519291665
3.9833333333333334,427.62354955591763
3.9916666666666667,428.53311190120417
4.0,429.178910947666
4.008333333333333,430.103065761289
4.016666666666667,430.9096853145194
4.025,431.8742343883922
4.033333333333333,432.751649039835
4.041666666666667,433.62271693039537
4.05,434.4971427530859
4.058333333333334,435.7202275542566
4.066666666666666,436.6377201358697
4.075,437.70113822801756
4.083333333333333,438.60508495547583
4.091666666666667,439.6014426898131
4.1,440.44978851238477
4.108333333333333,441.1722445865873
4.116666666666666,442.1390546584289
4.125,443.1761352301015
4.133333333333333,444.0371717528362
4.141666666666667,444.8709864009044
4.15,445.80027458214806
4.158333333333333,446.68016440136245
4.166666666666667,447.62483671918744
4.175,448.5597034876775
4.183333333333334,449.5892107257884
4.191666666666666,450.5122351417026
4.2,451.55028714009376
4.208333333333333,452.5045996669841
4.216666666666667,453.5113792492604
4.225,454.59835124881204
4.233333333333333,455.8081047147137
4.241666666666666,456.8091301490136
4.25,458.001260228366
4.258333333333333,459.0460263015698
4.266666666666667,459.96899837063785
4.275,460.9280771993853
4.283333333333333,461.82999863789587
4.291666666666667,462.7511621429963
4.3,463.6976723113099
4.308333333333334,464.71713624404447
4.316666666666666,465.6978958186963
4.325,466.6219988463197
4.333333333333333,467.6827560150037
4.341666666666667,468.7457258282459
4.35,469.6576190350054
4.358333333333333,470.8190455447659
4.366666666666666,472.0238613629104
4.375,473.0522349617794
4.383333333333333,474.18162513083354
4.391666666666667,475.27541076793557
4.4,476.3589481906375
4.408333333333333,477.5456730538265
4.416666666666667,478.6037178825393
4.425,479.6201908816163
4.433333333333334,480.63492687120066
4.441666666666666,481.66382892362265
4.45,482.76767845237663
4.458333333333333,483.63190551458075
4.466666666666667,484.4884079116347
4.475,485.4304088480492
4.483333333333333,486.43345958202804
4.491666666666666,487.4274528586781
4.5,488.31617973527597
4.508333333333333,489.20341740937795
4.516666666666667,490.2035775943486
4.525,491.2290688097434
4.533333333333333,492.0331331447213
4.541666666666667,493.14971419236076
4.55,494.1836424196831
4.558333333333334,495.1272794605391
4.566666666666666,496.14379615082095
4.575,497.37998172073833
4.583333333333333,498.5177065721833
4.591666666666667,499.51087409528515
4.6,500.4167697214853
4.608333333333333,501.50376676593766
4.616666666666666,502.55730100222615
4.625,503.58157896530923
4.633333333333333,504.57864986137736
4.641666666666667,505.5321362471445
4.65,506.5317621079487
4.658333333333333,507.24333928330435
4.666666666666667,507.99232248272517
4.675,508.9169474369994
4.683333333333334,509.8147818252903
4.691666666666666,510.62589497800224
4.7,511.56801136707816
4.708333333333333,512.4424686792314
4.716666666666667,513.3646967210353
4.725,514.2110815442454
4.733333333333333,515.2363532895771
4.741666666666666,516.2851196893816
4.75,517.143150821083
4.758333333333333,518.1876252028425
4.766666666666667,519.0456246766942
4.775,520.0581614518657
4.783333333333333,520.8681778387731
4.791666666666667,522.0170670058365
4.8,522.8307911326435
4.808333333333334,523.8867579569277
4.816666666666666,524.695511929586
4.825,525.5882797365853
4.833333333333333,526.6028972659641
4.841666666666667,527.6007025392789
4.85,528.625270004847
4.858333333333333,529.7247911740699
4.866666666666666,530.8481202171121
4.875,531.8920800287569
4.883333333333333,533.3282939242339
4.891666666666667,534.5074374383272
4.9,535.8480348659988
4.908333333333333,537.1161513769002
4.916666666666667,538.2369210856405
4.925,539.3549939052709
4.933333333333334,540.5372821292933
4.941666666666666,541.8682064930276
4.95,543.1162794733897
4.958333333333333,544.2395257849804
4.966666666666667,545.4037647045412
4.975,546.5815689518828
4.983333333333333,547.6912935751948
4.991666666666666,549.0991511268829
5.0,550.5191478361779
5.008333333333333,552.0110766469602
5.016666666666667,553.5408144505194
5.025,554.8436844987701
5.033333333333333,555.9264779438744
5.041666666666667,557.0461138371248
5.05,558.0714311609977
5.058333333333334,559.3327133058813
