lag_frame[sec],MSD_[px^2]
0.008333333333333333,0.274437298700571
0.016666666666666666,0.2969914989358094
0.025,0.3262108832203822
0.03333333333333333,0.3579214093956993
0.041666666666666664,0.39377593564299856
0.05,0.4313752370491592
0.058333333333333334,0.46411754237608716
0.06666666666666667,0.49407401347107255
0.075,0.5123562782176727
0.08333333333333333,0.5219326229978593
0.09166666666666666,0.5209007950522042
0.1,0.5088671161226391
0.10833333333333334,0.48802801569668885
0.11666666666666667,0.4631559660596638
0.125,0.4305940112299984
0.13333333333333333,0.39630953133332847
0.14166666666666666,0.36377232914872304
0.15,0.3358907936726644
0.15833333333333333,0.31664990915602426
0.16666666666666666,0.3063463398771088
0.175,0.3051350114202278
0.18333333333333332,0.31733023922258996
0.19166666666666665,0.3355562797686102
0.2,0.3632169220163477
0.20833333333333334,0.39541910105413924
0.21666666666666667,0.42875019699438666
0.225,0.4615096066621787
0.23333333333333334,0.4919955110031258
0.24166666666666667,0.5097846188535302
0.25,0.5241142133463169
0.2583333333333333,0.527685865231165
0.26666666666666666,0.5220762889283374
0.275,0.5046164703083019
0.2833333333333333,0.4802744914145393
0.2916666666666667,0.4522697429299578
0.3,0.4183761053284048
0.30833333333333335,0.383943787935206
0.31666666666666665,0.3550731991814419
0.325,0.3300297871258994
0.3333333333333333,0.3179014044637352
0.3416666666666667,0.3114148825126652
0.35,0.31312595171168156
0.35833333333333334,0.3286261765127049
0.36666666666666664,0.34894094014230037
0.375,0.38047445386506934
0.3833333333333333,0.4123299348796912
0.39166666666666666,0.44699230866135115
0.4,0.4768215393399541
0.4083333333333333,0.5001507113412346
0.4166666666666667,0.519314730476416
0.425,0.5278865830204343
0.43333333333333335,0.5266817410171492
0.44166666666666665,0.5157366137239723
0.45,0.4959991774502177
0.4583333333333333,0.4680919502587991
0.4666666666666667,0.4380038260795315
0.475,0.4062441546859223
0.48333333333333334,0.3748487836854789
0.49166666666666664,0.3487160132342175
0.5,0.3277926994240638
0.5083333333333333,0.3169136412631447
0.5166666666666666,0.3147182958160638
0.525,0.3241698031321023
0.5333333333333333,0.34158281187045253
0.5416666666666666,0.36635353647057706
0.55,0.39816014256987525
0.5583333333333333,0.42999345542629724
0.5666666666666667,0.4615966222678083
0.575,0.49223862828973736
0.5833333333333334,0.5125361949978334
0.5916666666666667,0.5235313450768911
0.6,0.5274601379710618
0.6083333333333333,0.5219531243627874
0.6166666666666667,0.5057857698872628
0.625,0.4823420543331543
0.6333333333333333,0.4537161256866291
0.6416666666666666,0.4209843955643783
0.65,0.38890587989415265
0.6583333333333333,0.36126411615331555
0.6666666666666666,0.33617459419950796
0.675,0.3213546934069813
0.6833333333333333,0.31543496720365416
0.6916666666666667,0.319276962231624
0.7,0.33139569475174574
0.7083333333333334,0.35463654173243037
0.7166666666666667,0.38418953654306
0.725,0.41586690527607867
0.7333333333333333,0.4472542685334065
0.7416666666666667,0.47567648093625337
0.75,0.50229389997985
0.7583333333333333,0.5207848613093832
0.7666666666666666,0.5301133975696534
0.775,0.5283165924941636
0.7833333333333333,0.5166103179447363
0.7916666666666666,0.49781087842434335
0.8,0.47405704406360094
0.8083333333333333,0.44173649631772566
0.8166666666666667,0.41041933251117013
0.825,0.38014301366926695
0.8333333333333334,0.35323734809214086
0.8416666666666667,0.3335364422035586
0.85,0.3229887151117967
0.8583333333333333,0.3212217192230627
0.8666666666666667,0.3306366627896689
0.875,0.3479180804141641
0.8833333333333333,0.3705953671614633
0.8916666666666666,0.4016138742918522
0.9,0.43461340291494743
0.9083333333333333,0.46606616914057164
0.9166666666666666,0.4926895592657375
0.9249999999999999,0.514961945159513
0.9333333333333333,0.5303238518148391
0.9416666666666667,0.5346226081921405
0.95,0.5269770250826441
0.9583333333333334,0.5132574796338473
0.9666666666666667,0.4925528424188768
0.975,0.46474228782138766
0.9833333333333333,0.4334214548451047
0.9916666666666667,0.4029705266360079
1.0,0.3736889211608223
1.0083333333333333,0.35065407641900237
1.0166666666666666,0.3350779197196999
1.025,0.3293141539317479
1.0333333333333332,0.33143676423291446
1.0416666666666667,0.34456618874426964
1.05,0.36777476372508455
1.0583333333333333,0.39488901968815726
1.0666666666666667,0.42537194382125154
1.075,0.458295874058918
1.0833333333333333,0.48854280686197066
1.0916666666666666,0.5134470158635009
1.1,0.5308185115516125
1.1083333333333334,0.5410473211679453
1.1166666666666667,0.5395207818483332
1.125,0.529010416638063
1.1333333333333333,0.5102942315796961
1.1416666666666666,0.4860365783999619
1.15,0.45869244750404153
1.1583333333333332,0.4280873779940711
1.1666666666666667,0.3969689797764941
1.175,0.3710502674903613
1.1833333333333333,0.3523090897783391
1.1916666666666667,0.34193484867647317
1.2,0.3390983917657001
1.2083333333333333,0.34779272854922283
1.2166666666666666,0.36590087369422875
1.225,0.3880702511599554
1.2333333333333334,0.41924640206718683
1.2416666666666667,0.451631622803933
1.25,0.48248943319713733
1.2583333333333333,0.5102915803159777
1.2666666666666666,0.5289940930391811
1.275,0.5425481800099694
1.2833333333333332,0.5446382070365737
1.2916666666666667,0.5422069954294171
1.3,0.5278390213879783
1.3083333333333333,0.5065810709309252
1.3166666666666667,0.4795848505944945
1.325,0.44773404955386614
1.3333333333333333,0.4188531285551237
1.3416666666666666,0.3898675841500291
1.35,0.36809982372850725
1.3583333333333334,0.3519926170287984
1.3666666666666667,0.3447814417663346
1.375,0.34674320440751194
1.3833333333333333,0.36000935388069055
1.3916666666666666,0.37850291353386145
1.4,0.4077508941740312
1.4083333333333332,0.43757687514646176
1.4166666666666667,0.4673784999232683
1.425,0.4955321080245148
1.4333333333333333,0.522561613190671
1.4416666666666667,0.5374067383024497
1.45,0.5481655772936285
1.4583333333333333,0.547606100762153
1.4666666666666666,0.5392535044502859
1.475,0.5197472759907524
1.4833333333333334,0.49583268449973483
1.4916666666666667,0.46779370823446126
1.5,0.4379844386315621
1.5083333333333333,0.4066833650218312
1.5166666666666666,0.38210524378053157
1.525,0.36241752073798816
1.5333333333333332,0.34881097857155285
1.5416666666666667,0.34772340067540347
1.55,0.353703992194681
1.5583333333333333,0.37073830607502606
1.5666666666666667,0.39596487955148335
1.575,0.4231232870654269
1.5833333333333333,0.4522416878292269
1.5916666666666666,0.4832930309095555
1.6,0.5126613762414715
1.6083333333333334,0.5320406721332083
1.6166666666666667,0.5472763197631549
1.625,0.5524418828370494
1.6333333333333333,0.5474829958421027
1.6416666666666666,0.5319382613086179
1.65,0.5123956706550895
1.6583333333333332,0.48657844887976803
1.6666666666666667,0.4563918071787598
1.675,0.4264473645713852
1.6833333333333333,0.3974864319835492
1.6916666666666667,0.3749672568727144
1.7,0.3591760674966801
1.7083333333333333,0.3521441905288002
1.7166666666666666,0.3542543806812773
1.7249999999999999,0.36845631756983416
1.7333333333333334,0.38678053702197324
1.7416666666666667,0.41392509356761464
1.75,0.4438779097971649
1.7583333333333333,0.47457762241188467
1.7666666666666666,0.5028930890195316
1.775,0.5254947123462536
1.7833333333333332,0.54317368090493
1.7916666666666667,0.5528693431744822
1.8,0.55254426886163
1.8083333333333333,0.5433592961296769
1.8166666666666667,0.5280726533042501
1.825,0.5030267003904118
1.8333333333333333,0.4751678599650704
1.8416666666666666,0.44685198792944897
1.8499999999999999,0.41705174955758384
1.8583333333333334,0.39190047003836004
1.8666666666666667,0.3719324921773582
1.875,0.36219427644063984
1.8833333333333333,0.35730392481515455
1.8916666666666666,0.36492835743039004
1.9,0.38150971539106604
1.9083333333333332,0.4034564224483777
1.9166666666666667,0.42916232836404833
1.925,0.45980702662925066
1.9333333333333333,0.4912052339981242
1.9416666666666667,0.5167677225073795
1.95,0.5373897093999151
1.9583333333333333,0.55159710459303
1.9666666666666666,0.5566713241372762
1.9749999999999999,0.5524837047544572
1.9833333333333334,0.54055481309873
1.9916666666666667,0.520123511170159
2.0,0.4929103058894016
2.0083333333333333,0.46641106012520517
2.0166666666666666,0.4360454119523156
2.025,0.40829136216129747
2.033333333333333,0.3876399571387649
2.0416666666666665,0.3724154017679883
2.05,0.36448471842041097
2.058333333333333,0.36638093969738894
2.0666666666666664,0.37677636614667714
2.075,0.396789591963921
2.0833333333333335,0.42010624903525307
2.091666666666667,0.44999942315679564
2.1,0.4796697557982808
2.1083333333333334,0.5073464823174743
2.1166666666666667,0.5308761352743108
2.125,0.5507566714572062
2.1333333333333333,0.5605843505639427
2.1416666666666666,0.5621907405833648
2.15,0.5537005962091605
2.158333333333333,0.5384159791673081
2.1666666666666665,0.5130983153955316
2.175,0.4868081583379881
2.183333333333333,0.4576123603759483
2.1916666666666664,0.4296495810838758
2.2,0.403287121574022
2.2083333333333335,0.38450544408882975
2.216666666666667,0.3743145732006416
2.225,0.36977507113604796
2.2333333333333334,0.37662051936845564
2.2416666666666667,0.3907073602953485
2.25,0.41435478914778534
2.2583333333333333,0.44117763377498126
2.2666666666666666,0.4710117047700436
2.275,0.49827467353681726
2.283333333333333,0.5267378580411246
2.2916666666666665,0.5457657976582895
2.3,0.5615238919220642
2.308333333333333,0.5663975844652797
2.3166666666666664,0.5631512041910689
2.325,0.5516286781771417
2.3333333333333335,0.5308027281622993
2.341666666666667,0.5068518754955623
2.35,0.4784772056201108
2.3583333333333334,0.4493692496703987
2.3666666666666667,0.4229022475281933
2.375,0.40118677729701624
2.3833333333333333,0.38488589308138665
2.3916666666666666,0.3783459527205515
2.4,0.3803156605113275
2.408333333333333,0.39097735476645096
2.4166666666666665,0.40876991093564835
2.425,0.43340581005347484
2.433333333333333,0.4626049036674433
2.4416666666666664,0.4897456417289386
2.45,0.5201428817262826
2.4583333333333335,0.5430871726624976
2.466666666666667,0.5604632590734582
2.475,0.5698766723519348
2.4833333333333334,0.5727745295813432
2.4916666666666667,0.5644018671467985
2.5,0.5488950346137571
2.5083333333333333,0.5270998524240181
2.5166666666666666,0.5010524793494187
2.525,0.4720182581138527
2.533333333333333,0.44282016108658495
2.5416666666666665,0.41803393084076174
2.55,0.4005801421466103
2.558333333333333,0.39099513509349465
2.5666666666666664,0.3872429022795086
2.575,0.3916228133507754
2.5833333333333335,0.4027068862520895
2.591666666666667,0.42638036091508696
2.6,0.45172926901928645
2.6083333333333334,0.48090661721286115
2.6166666666666667,0.511607451927556
2.625,0.537088733482894
2.6333333333333333,0.5586894203746486
2.6416666666666666,0.5733719274630732
2.65,0.5794408168473342
2.658333333333333,0.5742941259952083
2.6666666666666665,0.5627251103326
2.675,0.5449887372421545
2.683333333333333,0.5207433148472768
2.6916666666666664,0.49185557426787174
2.7,0.46443017374431383
2.7083333333333335,0.43867620119142325
2.716666666666667,0.4147937141134488
2.725,0.4011621696047047
2.7333333333333334,0.3943397210392221
2.7416666666666667,0.395124035097559
2.75,0.4043298887707547
2.7583333333333333,0.4238304612670892
2.7666666666666666,0.44679131374022374
2.775,0.47568158073657824
2.783333333333333,0.5035954443937198
2.7916666666666665,0.5300609585817467
2.8,0.554684881422436
2.808333333333333,0.5721670333807808
2.8166666666666664,0.5814524452940107
2.825,0.5832524433121562
2.8333333333333335,0.5769107336048843
2.841666666666667,0.56177483470777
2.85,0.5409178738812235
2.8583333333333334,0.5150473951997551
2.8666666666666667,0.486206665530183
2.875,0.45805862013836046
2.8833333333333333,0.4349833056375611
2.8916666666666666,0.4154299116725833
2.9,0.4048535225341703
2.908333333333333,0.4007934145343855
2.9166666666666665,0.40693623381864164
2.925,0.42241445485323426
2.933333333333333,0.4418840626165616
2.9416666666666664,0.4684741126242089
2.95,0.4967129179806664
2.9583333333333335,0.5259942697858617
2.966666666666667,0.5517283440758386
2.975,0.5722141994857337
2.9833333333333334,0.5848260351035881
2.9916666666666667,0.5930089509081918
3.0,0.590079763311863
3.0083333333333333,0.5801702753909099
3.0166666666666666,0.5611862533031196
3.025,0.537722123504624
3.033333333333333,0.511163000009674
3.0416666666666665,0.4842866512273498
3.05,0.45894970601059987
3.058333333333333,0.43603883092169154
3.0666666666666664,0.4206770450900893
3.075,0.4142345741223447
3.0833333333333335,0.4160451503951098
3.091666666666667,0.42491649684051735
3.1,0.44244198417439046
3.1083333333333334,0.4663971450658197
3.1166666666666667,0.4940455982386525
3.125,0.5230378541598493
3.1333333333333333,0.5481455999540213
3.1416666666666666,0.5720754745491281
3.15,0.5889045547281745
3.158333333333333,0.598920801637965
3.1666666666666665,0.6004232813275917
3.175,0.5957938604202427
3.183333333333333,0.5825260177764071
3.1916666666666664,0.5618471583404456
3.2,0.5354751222408991
3.2083333333333335,0.5092950817820486
3.216666666666667,0.4812579315193625
3.225,0.458517729961104
3.2333333333333334,0.43918339870273376
3.2416666666666667,0.4291010863700385
3.25,0.4256890215644554
3.2583333333333333,0.43194332941275415
3.2666666666666666,0.44441162450888144
3.275,0.46610433235878324
3.283333333333333,0.49012342689476074
3.2916666666666665,0.5175682975315972
3.3,0.5470517804892839
3.308333333333333,0.5716956150801493
3.3166666666666664,0.5932001796064391
3.3249999999999997,0.6062040483955742
3.3333333333333335,0.6133142022652808
3.341666666666667,0.609664264837789
3.35,0.6001953063297127
3.3583333333333334,0.5838787515246061
3.3666666666666667,0.5618040802476875
3.375,0.5341881026789849
3.3833333333333333,0.5071226978699105
3.3916666666666666,0.4815420738212937
3.4,0.46094822648262096
3.408333333333333,0.4463225100588353
3.4166666666666665,0.4387953477988523
3.425,0.44032885220845275
3.433333333333333,0.44983223832536645
3.4416666666666664,0.4656854831545103
3.4499999999999997,0.4906421477141055
3.4583333333333335,0.5170069854660247
3.466666666666667,0.543578250040193
3.475,0.5716540912536757
3.4833333333333334,0.5945743401730316
3.4916666666666667,0.6125934502237755
3.5,0.6221981206742131
3.5083333333333333,0.6244965777717028
3.5166666666666666,0.6188700377422163
3.525,0.6053697133462242
3.533333333333333,0.5857052615420291
3.5416666666666665,0.5597983227517175
3.55,0.533868777309758
3.558333333333333,0.5069013318835788
3.5666666666666664,0.48377951347470055
3.5749999999999997,0.46635674596355475
3.5833333333333335,0.45581270533359797
3.591666666666667,0.45154291512470873
3.6,0.4582857610934904
3.6083333333333334,0.47061728729641394
3.6166666666666667,0.491408665571341
3.625,0.5149253696229591
3.6333333333333333,0.5426864645640723
3.6416666666666666,0.5699208268336938
3.65,0.5957181411277469
3.658333333333333,0.6162172604704943
3.6666666666666665,0.629630430939308
3.675,0.6358302578861854
3.683333333333333,0.6331501999028576
3.6916666666666664,0.6245855932277362
3.6999999999999997,0.6082935824456658
3.7083333333333335,0.585384240348784
3.716666666666667,0.5580384254867051
3.725,0.532851386495826
3.7333333333333334,0.5083025301771246
3.7416666666666667,0.48791707800660356
3.75,0.4738047531325385
3.7583333333333333,0.4650778590550657
3.7666666666666666,0.4663434992452854
3.775,0.4765932626964504
3.783333333333333,0.49231542000166867
3.7916666666666665,0.5141862129728816
3.8,0.5408467062396646
3.808333333333333,0.5690319206927431
3.8166666666666664,0.5940727659052322
3.8249999999999997,0.6171196390175077
3.8333333333333335,0.6353441304041839
3.841666666666667,0.6446245266288051
3.85,0.6464305012751482
3.8583333333333334,0.6424502098677723
3.8666666666666667,0.6298941281294519
3.875,0.6091075167743307
3.8833333333333333,0.5851105174441409
3.8916666666666666,0.5587623538995133
3.9,0.5343598843863998
3.908333333333333,0.5106779825814041
3.9166666666666665,0.49332549875552967
3.925,0.48075210811763336
3.933333333333333,0.47796145871639245
3.9416666666666664,0.48507222068394434
3.9499999999999997,0.49764631672073373
3.9583333333333335,0.5174623882565358
3.966666666666667,0.5408920789738623
3.975,0.5671196149376749
3.9833333333333334,0.593923980247287
3.9916666666666667,0.6195374699945387
4.0,0.6400397644539232
4.008333333333333,0.6526413930286403
4.016666666666667,0.6590887373271372
4.025,0.6585170412813105
4.033333333333333,0.6482753515024691
4.041666666666667,0.6319750820088198
4.05,0.6096851773445404
4.058333333333334,0.584747645945724
4.066666666666666,0.5606731710204578
4.075,0.5354282764373082
4.083333333333333,0.5136000714951104
4.091666666666667,0.5013395427559239
4.1,0.4950437560671989
4.108333333333333,0.4966817810002382
4.116666666666666,0.5021198978066982
4.125,0.5179250488652658
4.133333333333333,0.5406549568277665
4.141666666666667,0.5662346580081867
4.15,0.5945647731309545
4.158333333333333,0.6199829025415601
4.166666666666667,0.6434994899009866
4.175,0.66001867267033
4.183333333333334,0.6692303888113733
4.191666666666666,0.6715804623279665
4.2,0.6657950742364237
4.208333333333333,0.6540804300899534
4.216666666666667,0.6361268852608779
4.225,0.6116675735841883
4.233333333333333,0.5866096948016806
4.241666666666666,0.5600899760411183
4.25,0.5370840052879678
4.258333333333333,0.5198522138277994
4.266666666666667,0.5091784583119346
4.275,0.506648525670869
4.283333333333333,0.5124257630250931
4.291666666666667,0.5235278277734324
4.3,0.5421308463011215
4.308333333333334,0.5661856209895888
4.316666666666666,0.5925245026291349
4.325,0.6183682788846105
4.333333333333333,0.6441310570415266
4.341666666666667,0.6634756389829107
4.35,0.6752412479595543
4.358333333333333,0.6824492040207553
4.366666666666666,0.6808098005867665
4.375,0.6717131037123102
4.383333333333333,0.6566380752935104
4.391666666666667,0.6347239999914118
4.4,0.6111277007594471
4.408333333333333,0.5844154689924979
4.416666666666667,0.5607248152805411
4.425,0.5403333794585937
4.433333333333334,0.5261788307793348
4.441666666666666,0.5177647650569109
4.45,0.5188753241836346
4.458333333333333,0.5273913680454168
4.466666666666667,0.5439181751293526
4.475,0.5651508386873234
4.483333333333333,0.5912552397669084
4.491666666666666,0.6180504120214133
4.5,0.6436743376858464
4.508333333333333,0.6658864861281214
4.516666666666667,0.6811993003352159
4.525,0.6923183400292545
4.533333333333333,0.6940540760533123
4.541666666666667,0.6883870989837237
4.55,0.6771809425994981
4.558333333333334,0.6573087944222249
4.566666666666666,0.6354394145020072
4.575,0.6092964885848805
4.583333333333333,0.5846128527695934
4.591666666666667,0.5617121035267694
4.6,0.5455874371499808
4.608333333333333,0.5345124217784027
4.616666666666666,0.5301402885909587
4.625,0.536407671853484
4.633333333333333,0.5487647787129506
4.641666666666667,0.566664220383418
4.65,0.5886209849218776
4.658333333333333,0.6158129066769713
4.666666666666667,0.6414024894864893
4.675,0.6659782066954061
4.683333333333334,0.6832915960131807
4.691666666666666,0.6985973433570728
4.7,0.7044041255985138
4.708333333333333,0.7030786236451736
4.716666666666667,0.6947103275138726
4.725,0.678747472975275
4.733333333333333,0.6582010811526953
4.741666666666666,0.6332367589834434
4.75,0.6090855814716394
4.758333333333333,0.5848194533896439
4.766666666666667,0.5645384191731067
4.775,0.5500139116859979
4.783333333333333,0.5435539045411635
4.791666666666667,0.5437130829497165
4.8,0.5535778355897513
4.808333333333334,0.5675660428023991
4.816666666666666,0.5880422894491835
4.825,0.6144502664626541
4.833333333333333,0.6384739782165677
4.841666666666667,0.6642709447368689
4.85,0.6872154462539224
4.858333333333333,0.7027307818757167
4.866666666666666,0.7135170016884073
4.875,0.7150472032124797
4.883333333333333,0.7114595879692595
4.891666666666667,0.6985486433793884
4.9,0.6790651660758783
4.908333333333333,0.6571250185120885
4.916666666666667,0.632482005538966
4.925,0.6064596279948581
4.933333333333334,0.5847217714346359
4.941666666666666,0.569134688254598
4.95,0.5580057464015684
